start,end,flux
0,1200,0
1370,1380,0.015625
1490,1500,0.0625
1610,1620,0.15625
1730,1740,0.328125
1850,1860,0.609375
1970,1980,0.890625
2090,2100,1.15625
2220,2340,1.25
2450,2460,1.15625
2570,2580,0.890625
2690,2700,0.609375
2810,2820,0.328125
2930,2940,0.15625
3050,3060,0.0625
3170,3180,0.015625
3300,18000,0
